 nmt =               50
 dmf =      F
 dff =      F
 vgr =       0.100000001    
 lde =        1.00000000    
 theta =     0.500000000    
 sigma =     0.500000000    
 ssr =                1
 dr =        0.300000012    
 mr =         9.99999978E-03
 spdispr =           30
 gs =               300
 ini =            60000
 ngen =            2000
 Myseed =         84563
 nmap =              50
 Gen nind ndea nveg nspo num_mat veg_1 spo_1 mat_1 veg_2 spo_2 mat_2
     0 60000     0     0     0    50  0.333 0.334 0.333   NaN   NaN   NaN
     5 53130 14530  3959 10242    50  0.328 0.369 0.303 0.312 0.339 0.349
    10 55039 14517  3895 11280    50  0.313 0.400 0.287 0.310 0.370 0.320
    15 57619 15151  3694 12124    50  0.303 0.430 0.268 0.299 0.403 0.298
    20 59644 15934  3702 12724    50  0.294 0.456 0.251 0.288 0.431 0.281
    25 61670 16466  3478 13221    50  0.285 0.479 0.236 0.281 0.453 0.266
    30 63130 16762  3335 13738    50  0.276 0.502 0.222 0.271 0.478 0.251
    35 64454 17026  3213 13998    50  0.265 0.524 0.210 0.264 0.498 0.238
    40 65566 17265  3138 14255    50  0.255 0.546 0.199 0.253 0.519 0.227
    45 66601 17791  3149 14695    50  0.246 0.565 0.189 0.243 0.540 0.217
    50 67905 17925  3023 14918    50  0.237 0.583 0.181 0.235 0.559 0.206
    55 68746 18173  2901 15309    50  0.230 0.598 0.172 0.227 0.577 0.197
    60 69622 18166  2924 15744    50  0.221 0.614 0.164 0.222 0.590 0.188
    65 69940 18471  2734 15815    50  0.215 0.628 0.157 0.214 0.604 0.181
    70 70595 18681  2702 15977    50  0.208 0.641 0.151 0.208 0.617 0.175
    75 71018 18899  2731 16088    50  0.203 0.651 0.146 0.201 0.629 0.169
    80 71280 18716  2641 16247    50  0.197 0.662 0.140 0.196 0.641 0.163
    85 71991 18997  2663 16474    50  0.192 0.673 0.134 0.191 0.653 0.156
    90 72183 19158  2642 16579    50  0.187 0.683 0.130 0.187 0.662 0.151
    95 72328 19191  2628 16437    50  0.183 0.691 0.126 0.184 0.670 0.146
   100 72870 19083  2551 16636    50  0.179 0.700 0.121 0.178 0.679 0.143
   105 72959 19396  2618 16710    50  0.176 0.706 0.118 0.174 0.689 0.137
   110 73437 19303  2473 16865    50  0.172 0.713 0.115 0.170 0.696 0.134
   115 73408 19331  2455 16750    50  0.168 0.718 0.113 0.167 0.702 0.131
   120 73610 19344  2469 16972    50  0.164 0.725 0.110 0.163 0.709 0.128
   125 73898 19259  2490 16865    50  0.161 0.730 0.109 0.161 0.714 0.126
   130 74098 19446  2408 16972    50  0.159 0.734 0.107 0.157 0.720 0.123
   135 74075 19625  2396 17014    50  0.157 0.739 0.104 0.156 0.723 0.121
   140 74363 19502  2477 17160    50  0.153 0.744 0.103 0.153 0.729 0.119
   145 74417 19614  2491 17296    50  0.153 0.746 0.101 0.150 0.733 0.118
   150 74657 19720  2406 17252    50  0.151 0.750 0.099 0.150 0.736 0.115
   155 74586 19793  2328 17482    50  0.149 0.753 0.098 0.147 0.740 0.113
   160 74645 19790  2401 17160    50  0.148 0.756 0.096 0.147 0.742 0.111
   165 74968 19697  2420 17290    50  0.146 0.758 0.095 0.145 0.745 0.110
   170 74712 19639  2485 17238    50  0.145 0.761 0.094 0.143 0.748 0.109
   175 75035 19685  2373 17426    50  0.143 0.764 0.093 0.141 0.751 0.108
   180 75044 19878  2422 17490    50  0.141 0.767 0.093 0.139 0.754 0.108
   185 75160 20013  2425 17328    50  0.140 0.768 0.092 0.138 0.756 0.106
   190 75143 19723  2367 17350    50  0.139 0.770 0.091 0.138 0.757 0.105
   195 75450 19672  2396 17631    50  0.137 0.772 0.091 0.136 0.759 0.105
   200 75317 19671  2366 17367    50  0.135 0.774 0.090 0.134 0.763 0.104
   205 75407 19875  2380 17469    50  0.134 0.776 0.090 0.132 0.765 0.103
   210 75261 19871  2428 17456    50  0.133 0.778 0.089 0.130 0.768 0.102
   215 75437 19895  2354 17446    50  0.131 0.781 0.089 0.130 0.769 0.101
   220 75698 19791  2405 17678    50  0.130 0.782 0.088 0.129 0.770 0.101
   225 75467 19694  2376 17581    50  0.129 0.783 0.088 0.128 0.772 0.100
   230 75595 19853  2255 17623    50  0.128 0.784 0.087 0.127 0.774 0.100
   235 75967 19703  2355 17502    50  0.126 0.787 0.087 0.126 0.775 0.100
   240 75623 19884  2277 17540    50  0.125 0.789 0.087 0.123 0.778 0.099
   245 75661 19855  2274 17641    50  0.123 0.790 0.087 0.123 0.778 0.099
   250 75799 20008  2309 17634    50  0.122 0.792 0.086 0.123 0.779 0.099
   255 76140 19931  2357 17686    50  0.122 0.792 0.086 0.120 0.781 0.098
   260 75616 20149  2389 17507    50  0.120 0.793 0.086 0.119 0.783 0.098
   265 76157 19791  2296 17790    50  0.119 0.795 0.086 0.119 0.783 0.098
   270 75850 20116  2365 17598    50  0.119 0.795 0.086 0.117 0.785 0.098
   275 76150 19891  2296 17492    50  0.118 0.796 0.086 0.117 0.785 0.098
   280 75947 19945  2306 17656    50  0.117 0.797 0.086 0.116 0.786 0.098
   285 76172 19862  2338 17582    50  0.116 0.797 0.087 0.115 0.787 0.098
   290 75985 19981  2294 17548    50  0.116 0.798 0.086 0.114 0.788 0.098
   295 76068 19854  2378 17665    50  0.115 0.798 0.086 0.113 0.788 0.099
   300 76018 20001  2293 17642    50  0.114 0.799 0.086 0.112 0.789 0.099
   305 76201 19915  2347 17826    50  0.114 0.800 0.086 0.112 0.789 0.098
   310 76044 19911  2368 17721    50  0.113 0.800 0.086 0.111 0.791 0.098
   315 76116 19893  2258 17785    50  0.113 0.800 0.087 0.112 0.791 0.098
   320 76227 19793  2361 17665    50  0.113 0.801 0.086 0.110 0.792 0.097
   325 76036 20150  2286 17758    50  0.112 0.802 0.086 0.110 0.793 0.097
   330 76288 20032  2282 17766    50  0.112 0.802 0.086 0.110 0.793 0.097
   335 76271 19869  2361 17647    50  0.111 0.803 0.085 0.109 0.793 0.098
   340 76172 20146  2326 17744    50  0.111 0.803 0.086 0.109 0.794 0.097
   345 76258 20211  2247 17901    50  0.111 0.803 0.085 0.108 0.794 0.097
   350 76058 19976  2269 17656    50  0.110 0.804 0.085 0.109 0.794 0.097
   355 76176 20015  2343 17648    50  0.110 0.804 0.086 0.108 0.795 0.097
   360 76057 19927  2307 17692    50  0.110 0.804 0.085 0.109 0.795 0.097
   365 76153 20011  2234 17783    50  0.111 0.804 0.085 0.109 0.794 0.097
   370 76165 20051  2417 17554    50  0.110 0.805 0.085 0.109 0.794 0.097
   375 76488 19937  2221 17831    50  0.110 0.804 0.086 0.108 0.795 0.097
   380 76027 20094  2340 17588    50  0.110 0.804 0.086 0.108 0.795 0.097
   385 76276 20117  2405 17768    50  0.110 0.804 0.086 0.109 0.795 0.096
   390 76179 20080  2257 17894    50  0.109 0.806 0.085 0.108 0.795 0.097
   395 76081 19991  2257 17510    50  0.109 0.806 0.084 0.107 0.796 0.097
   400 76062 20152  2313 17814    50  0.109 0.805 0.085 0.108 0.794 0.098
   405 76170 20099  2309 17597    50  0.110 0.805 0.085 0.108 0.795 0.097
   410 76133 20257  2297 17874    50  0.109 0.806 0.085 0.108 0.796 0.097
   415 76267 19905  2299 17797    50  0.109 0.806 0.085 0.108 0.795 0.097
   420 76583 19952  2251 17892    50  0.109 0.806 0.085 0.108 0.796 0.097
   425 76050 20042  2266 17612    50  0.110 0.806 0.085 0.108 0.796 0.096
   430 75880 20189  2239 17661    50  0.109 0.807 0.084 0.107 0.797 0.095
   435 76021 20085  2273 17681    50  0.109 0.806 0.085 0.107 0.797 0.096
   440 76469 19816  2346 17609    50  0.110 0.806 0.084 0.108 0.797 0.096
   445 76290 19924  2326 17648    50  0.110 0.806 0.085 0.107 0.798 0.095
   450 76383 19941  2333 17817    50  0.109 0.807 0.084 0.107 0.797 0.095
   455 76441 19993  2206 17876    50  0.109 0.807 0.084 0.107 0.798 0.095
   460 76474 19909  2308 17647    50  0.109 0.807 0.084 0.107 0.798 0.095
   465 76338 19875  2374 17555    50  0.110 0.807 0.084 0.107 0.798 0.095
   470 76501 19801  2274 17762    50  0.109 0.807 0.085 0.107 0.798 0.095
   475 75962 20280  2248 17663    50  0.109 0.807 0.084 0.107 0.797 0.096
   480 76427 19953  2261 17841    50  0.108 0.807 0.085 0.106 0.798 0.095
   485 76192 19983  2363 17774    50  0.108 0.808 0.084 0.107 0.798 0.095
   490 76384 19906  2302 17632    50  0.109 0.807 0.084 0.107 0.798 0.095
   495 76217 19819  2242 17633    50  0.109 0.808 0.084 0.107 0.798 0.095
   500 76311 19825  2295 17664    50  0.108 0.807 0.084 0.107 0.798 0.095
   505 76219 19849  2379 17707    50  0.108 0.808 0.084 0.107 0.798 0.095
   510 76467 20002  2332 17743    50  0.108 0.808 0.084 0.107 0.797 0.095
   515 76281 20075  2287 17979    50  0.109 0.807 0.084 0.107 0.797 0.096
   520 76277 19911  2344 17734    50  0.109 0.807 0.084 0.107 0.798 0.095
   525 76273 20085  2325 17770    50  0.108 0.808 0.084 0.106 0.799 0.095
   530 76259 20155  2306 17863    50  0.108 0.808 0.084 0.107 0.798 0.095
   535 76239 20029  2350 17685    50  0.109 0.807 0.084 0.107 0.797 0.096
   540 76216 20015  2296 17688    50  0.108 0.807 0.085 0.107 0.797 0.096
   545 76212 20039  2236 17645    50  0.108 0.807 0.085 0.107 0.798 0.096
   550 76107 20095  2222 17853    50  0.108 0.807 0.085 0.106 0.797 0.096
   555 76206 20113  2222 17722    50  0.109 0.806 0.085 0.107 0.796 0.097
   560 76249 19901  2261 17719    49  0.109 0.805 0.086 0.107 0.796 0.098
   565 75934 20024  2275 17541    49  0.109 0.805 0.086 0.108 0.795 0.097
   570 76344 19842  2288 17814    49  0.109 0.805 0.086 0.107 0.795 0.097
   575 76229 20056  2311 17713    49  0.109 0.805 0.086 0.107 0.795 0.097
   580 76129 20045  2312 17688    49  0.109 0.804 0.086 0.107 0.795 0.097
   585 75954 20199  2231 17888    49  0.109 0.805 0.086 0.108 0.794 0.097
   590 76384 20145  2261 17898    49  0.109 0.805 0.086 0.107 0.796 0.097
   595 76280 19974  2432 17867    49  0.109 0.805 0.086 0.107 0.795 0.098
   600 76149 20135  2320 17668    49  0.108 0.805 0.087 0.107 0.795 0.098
   605 76209 20041  2249 17762    49  0.108 0.805 0.086 0.107 0.794 0.098
   610 76218 19972  2310 17756    49  0.108 0.805 0.086 0.107 0.795 0.098
   615 76168 19892  2290 17715    49  0.108 0.805 0.086 0.107 0.796 0.098
   620 76112 19968  2366 17615    49  0.108 0.806 0.086 0.107 0.796 0.097
   625 76328 20008  2300 17722    49  0.108 0.807 0.086 0.107 0.797 0.097
   630 76369 20162  2400 17707    49  0.108 0.807 0.085 0.106 0.797 0.098
   635 76152 19952  2287 17620    49  0.108 0.806 0.086 0.106 0.797 0.097
   640 76148 19947  2278 17605    49  0.108 0.806 0.086 0.106 0.797 0.097
   645 76339 19948  2295 17769    49  0.108 0.806 0.086 0.107 0.797 0.097
   650 76324 20094  2321 17799    49  0.108 0.806 0.086 0.106 0.797 0.097
   655 76216 19955  2288 17932    49  0.107 0.807 0.086 0.106 0.797 0.097
   660 76077 20215  2285 17769    49  0.107 0.807 0.086 0.106 0.797 0.097
   665 76393 19905  2345 17679    49  0.107 0.806 0.086 0.106 0.797 0.097
   670 76084 20182  2300 17879    49  0.108 0.806 0.086 0.106 0.796 0.097
   675 76212 20068  2285 17758    49  0.108 0.806 0.086 0.106 0.796 0.097
   680 76297 20107  2322 17856    49  0.108 0.806 0.086 0.106 0.797 0.097
   685 76128 19849  2335 17553    49  0.108 0.806 0.086 0.106 0.796 0.098
   690 76460 19846  2377 17779    49  0.107 0.807 0.086 0.106 0.796 0.098
   695 76270 20066  2297 17769    49  0.107 0.806 0.086 0.105 0.797 0.098
   700 76318 20041  2352 17772    49  0.107 0.807 0.086 0.105 0.797 0.098
   705 76212 20289  2358 17774    49  0.107 0.807 0.087 0.105 0.797 0.098
   710 76019 20067  2260 17534    49  0.107 0.806 0.087 0.105 0.797 0.098
   715 76477 20092  2273 17827    49  0.107 0.806 0.086 0.106 0.797 0.097
   720 75956 20241  2295 17706    49  0.107 0.807 0.086 0.105 0.798 0.097
   725 76364 19877  2283 17708    49  0.107 0.806 0.087 0.104 0.798 0.098
   730 76108 20074  2273 17712    49  0.107 0.807 0.086 0.105 0.798 0.097
   735 76156 20181  2324 17801    49  0.106 0.808 0.086 0.105 0.798 0.097
   740 76060 20369  2351 17760    49  0.106 0.808 0.086 0.104 0.798 0.098
   745 76007 20269  2254 17756    49  0.106 0.808 0.086 0.105 0.798 0.097
   750 76398 20179  2289 17914    49  0.106 0.807 0.086 0.105 0.798 0.097
   755 76281 19957  2337 17796    49  0.106 0.808 0.086 0.105 0.798 0.097
   760 76407 19908  2304 17685    49  0.106 0.808 0.085 0.105 0.797 0.097
   765 76138 20299  2317 17922    49  0.107 0.808 0.086 0.105 0.798 0.097
   770 76208 20023  2332 17690    49  0.106 0.808 0.085 0.105 0.800 0.096
   775 76222 20251  2297 17848    49  0.107 0.809 0.085 0.105 0.799 0.096
   780 76138 20060  2305 17649    49  0.107 0.809 0.084 0.106 0.799 0.095
   785 76161 20112  2334 17711    49  0.107 0.809 0.084 0.105 0.800 0.095
   790 76404 20046  2365 17696    49  0.107 0.809 0.084 0.105 0.799 0.096
   795 76370 20145  2299 17761    49  0.107 0.809 0.084 0.105 0.799 0.096
   800 76457 20090  2211 17790    49  0.107 0.809 0.085 0.105 0.799 0.096
   805 76500 19820  2190 17854    49  0.107 0.808 0.085 0.105 0.799 0.096
   810 76195 20236  2232 17893    49  0.107 0.808 0.085 0.106 0.798 0.096
   815 76191 19956  2341 17594    49  0.107 0.807 0.085 0.106 0.798 0.096
   820 76273 19833  2216 17642    49  0.108 0.807 0.085 0.106 0.799 0.096
   825 76203 20008  2355 17673    49  0.108 0.807 0.085 0.106 0.798 0.096
   830 76302 20095  2263 17946    49  0.108 0.807 0.085 0.106 0.799 0.095
   835 76141 20134  2210 17704    49  0.108 0.808 0.085 0.107 0.798 0.096
   840 76361 19970  2261 17791    49  0.108 0.807 0.085 0.106 0.798 0.096
   845 76181 20157  2311 17751    49  0.108 0.807 0.085 0.106 0.798 0.096
   850 76413 20080  2270 17698    49  0.108 0.807 0.085 0.106 0.798 0.096
   855 76127 19953  2334 17621    49  0.108 0.807 0.085 0.107 0.798 0.095
   860 76244 19983  2298 17846    49  0.108 0.807 0.084 0.106 0.798 0.095
   865 76270 19908  2372 17653    49  0.108 0.808 0.084 0.106 0.798 0.096
   870 76439 19950  2235 17687    49  0.108 0.807 0.085 0.107 0.797 0.096
   875 76095 19914  2333 17673    49  0.108 0.807 0.085 0.107 0.797 0.097
   880 76408 20078  2407 17893    49  0.108 0.807 0.085 0.106 0.797 0.096
   885 76021 20090  2322 17700    49  0.109 0.806 0.085 0.107 0.797 0.097
   890 76371 19696  2286 17516    49  0.108 0.807 0.085 0.107 0.797 0.096
   895 76337 20135  2264 17846    49  0.108 0.807 0.085 0.107 0.797 0.096
   900 76116 20106  2336 17717    49  0.108 0.807 0.085 0.107 0.797 0.096
   905 76213 19898  2239 17619    49  0.108 0.807 0.085 0.106 0.797 0.097
   910 76351 19935  2370 17674    49  0.108 0.807 0.085 0.106 0.797 0.096
   915 76414 19982  2338 17780    49  0.108 0.806 0.085 0.107 0.797 0.096
   920 75896 19999  2270 17821    49  0.108 0.806 0.086 0.107 0.796 0.097
   925 76050 20219  2264 17655    49  0.108 0.806 0.086 0.106 0.796 0.098
   930 76280 20089  2287 17879    49  0.107 0.807 0.086 0.106 0.796 0.098
   935 76085 19899  2281 17699    49  0.108 0.807 0.086 0.106 0.797 0.097
   940 76173 20003  2257 17779    49  0.108 0.807 0.085 0.105 0.797 0.097
   945 76083 20013  2330 17535    49  0.108 0.806 0.086 0.105 0.798 0.097
   950 76199 20158  2287 17734    49  0.107 0.806 0.086 0.106 0.798 0.097
   955 76534 20076  2328 17802    49  0.108 0.806 0.086 0.106 0.797 0.097
   960 76290 20058  2232 17719    49  0.108 0.806 0.086 0.106 0.797 0.097
   965 76311 19942  2216 17707    49  0.107 0.807 0.086 0.106 0.797 0.097
   970 76171 20197  2275 17813    49  0.107 0.807 0.086 0.106 0.797 0.097
   975 76394 19861  2258 17672    49  0.107 0.807 0.086 0.105 0.797 0.097
   980 76303 19997  2284 17672    49  0.107 0.807 0.086 0.106 0.797 0.097
   985 76016 20087  2290 17693    49  0.107 0.806 0.086 0.107 0.796 0.097
   990 76268 19898  2365 17697    49  0.107 0.807 0.086 0.106 0.797 0.097
   995 76213 20058  2235 17709    49  0.107 0.806 0.086 0.105 0.798 0.097
  1000 76445 20062  2269 17834    49  0.107 0.807 0.086 0.105 0.797 0.098
  1005 76277 20072  2359 17800    49  0.106 0.807 0.086 0.105 0.797 0.098
  1010 76125 20161  2282 17901    49  0.106 0.807 0.087 0.105 0.797 0.098
  1015 76257 20036  2239 17767    49  0.106 0.807 0.087 0.105 0.797 0.098
  1020 76208 20111  2358 17818    49  0.106 0.807 0.087 0.105 0.798 0.097
  1025 76172 20026  2282 17793    49  0.106 0.807 0.086 0.105 0.798 0.097
  1030 76293 19975  2337 17691    49  0.106 0.807 0.087 0.106 0.797 0.098
  1035 76228 19967  2265 17842    49  0.106 0.807 0.086 0.105 0.797 0.097
  1040 76341 19948  2335 17645    49  0.106 0.808 0.086 0.105 0.797 0.097
  1045 76182 20005  2343 17728    49  0.107 0.807 0.086 0.105 0.797 0.098
  1050 76218 20059  2290 17953    49  0.107 0.807 0.086 0.105 0.798 0.098
  1055 76239 19992  2231 17902    49  0.106 0.808 0.086 0.105 0.798 0.097
  1060 76257 19957  2317 17798    49  0.106 0.808 0.086 0.104 0.799 0.097
  1065 76288 20025  2391 17836    49  0.106 0.809 0.085 0.104 0.798 0.097
  1070 76241 19969  2439 17637    49  0.105 0.809 0.086 0.105 0.798 0.097
  1075 75988 20153  2266 17694    49  0.106 0.808 0.086 0.105 0.798 0.097
  1080 76132 19942  2256 17699    49  0.106 0.808 0.087 0.104 0.797 0.098
  1085 76628 20027  2197 17688    49  0.106 0.807 0.087 0.105 0.797 0.098
  1090 76267 20006  2304 17729    49  0.106 0.806 0.087 0.106 0.796 0.099
  1095 76298 19977  2266 17819    49  0.106 0.806 0.088 0.106 0.795 0.099
  1100 76215 19981  2366 17483    49  0.106 0.807 0.087 0.106 0.796 0.098
  1105 76006 20156  2264 17694    49  0.107 0.806 0.087 0.105 0.795 0.099
  1110 76194 19873  2275 17688    49  0.107 0.806 0.088 0.105 0.796 0.098
  1115 76228 20131  2351 17577    49  0.107 0.806 0.087 0.105 0.796 0.099
  1120 76122 20064  2334 17616    49  0.107 0.806 0.087 0.106 0.795 0.099
  1125 76266 20146  2315 17756    49  0.107 0.805 0.088 0.105 0.795 0.099
  1130 76219 20271  2425 17822    49  0.107 0.806 0.088 0.105 0.796 0.099
  1135 76132 19975  2304 17703    49  0.107 0.806 0.087 0.106 0.795 0.099
  1140 76363 19955  2285 17678    49  0.107 0.806 0.087 0.106 0.796 0.098
  1145 76343 19853  2389 17598    49  0.107 0.806 0.087 0.106 0.796 0.098
  1150 76188 20174  2310 17692    49  0.108 0.806 0.086 0.107 0.795 0.098
  1155 76227 19982  2266 17830    49  0.108 0.806 0.086 0.107 0.796 0.098
  1160 76099 19902  2342 17750    49  0.108 0.806 0.086 0.107 0.796 0.098
  1165 76171 20126  2353 17832    49  0.109 0.805 0.086 0.107 0.795 0.098
  1170 76320 19993  2245 17845    49  0.109 0.805 0.086 0.108 0.795 0.097
  1175 76273 20078  2290 17817    49  0.109 0.805 0.086 0.108 0.795 0.097
  1180 76054 20124  2225 17680    49  0.109 0.805 0.086 0.107 0.796 0.097
  1185 76156 20052  2306 17717    49  0.109 0.806 0.085 0.108 0.795 0.097
  1190 76387 20198  2343 17804    49  0.109 0.806 0.085 0.107 0.796 0.097
  1195 76350 19967  2359 17787    49  0.108 0.807 0.086 0.107 0.796 0.097
  1200 76262 20027  2232 17765    49  0.108 0.806 0.086 0.107 0.795 0.097
  1205 76243 19916  2269 17672    49  0.109 0.806 0.086 0.107 0.795 0.098
  1210 76108 20120  2316 17704    49  0.109 0.806 0.085 0.108 0.796 0.097
  1215 76394 20145  2341 17964    49  0.109 0.805 0.086 0.107 0.796 0.097
  1220 76458 19850  2303 17783    49  0.109 0.805 0.086 0.107 0.796 0.097
  1225 76120 19949  2265 17689    49  0.109 0.805 0.086 0.107 0.794 0.098
  1230 76407 19836  2335 17520    49  0.109 0.804 0.086 0.108 0.794 0.098
  1235 76375 19980  2263 17840    49  0.109 0.804 0.087 0.108 0.794 0.098
  1240 76144 20040  2292 17742    49  0.109 0.804 0.087 0.108 0.794 0.098
  1245 76288 20205  2351 17649    49  0.109 0.805 0.086 0.108 0.795 0.097
  1250 76148 20014  2362 17657    49  0.109 0.805 0.085 0.108 0.795 0.097
  1255 76252 19920  2421 17736    49  0.109 0.806 0.085 0.108 0.795 0.097
  1260 76295 20123  2247 17937    49  0.109 0.805 0.086 0.107 0.796 0.097
  1265 76229 19982  2277 17685    49  0.109 0.805 0.086 0.107 0.796 0.097
  1270 76168 20176  2221 17809    49  0.109 0.806 0.085 0.107 0.796 0.096
  1275 76038 20183  2328 17668    49  0.108 0.806 0.085 0.106 0.796 0.098
  1280 76215 20038  2222 17886    49  0.108 0.806 0.085 0.107 0.796 0.097
  1285 76056 20103  2280 17833    49  0.109 0.806 0.085 0.107 0.795 0.098
  1290 75954 20103  2263 17653    49  0.109 0.805 0.086 0.107 0.795 0.098
  1295 76209 19989  2316 17555    49  0.109 0.805 0.086 0.106 0.796 0.097
  1300 76040 20216  2303 17717    49  0.109 0.806 0.086 0.106 0.796 0.098
  1305 76290 20097  2362 17696    49  0.109 0.805 0.086 0.107 0.796 0.097
  1310 76304 20161  2309 17752    49  0.109 0.805 0.086 0.107 0.796 0.097
  1315 76203 20105  2298 17682    49  0.108 0.806 0.086 0.107 0.796 0.098
