 nmt =               50
 dmf =      T
 dff =      T
 vgr =       0.100000001    
 lde =       0.990000010    
 theta =     0.500000000    
 sigma =     0.500000000    
 ssr =                1
 dr =        0.300000012    
 mr =         9.99999978E-03
 spdispr =           30
 gs =               300
 ini =            60000
 ngen =            2000
 Myseed =         84563
 nmap =              50
 Gen nind ndea nveg nspo num_mat veg_1 spo_1 mat_1 veg_2 spo_2 mat_2
     0 60000     0     0     0    50  0.334 0.333 0.334   NaN   NaN   NaN
     5 42475 12465  4440  4595    50  0.108 0.129 0.763 0.134 0.147 0.719
    10 26657  8117  4630   977    50  0.033 0.039 0.928 0.034 0.038 0.928
    15 17445  5452  3673   224    50  0.015 0.019 0.966 0.011 0.012 0.977
    20 12428  3721  3012    71    49  0.010 0.012 0.978 0.004 0.005 0.991
    25  9183  2842  2263    37    46  0.008 0.010 0.982 0.002 0.003 0.995
    30  7131  2186  1819    22    46  0.009 0.011 0.981 0.004 0.003 0.992
    35  5604  1674  1406    13    41  0.007 0.010 0.983 0.002 0.003 0.995
    40  4593  1414  1184    29    35  0.009 0.018 0.972 0.003 0.006 0.992
    45  3658  1098   951    26    32  0.017 0.021 0.961 0.003 0.007 0.991
    50  2999   880   795    10    31  0.014 0.024 0.962 0.002 0.003 0.996
    55  2711   822   689    22    27  0.026 0.068 0.906 0.003 0.009 0.988
    60  2294   681   556    16    26  0.030 0.090 0.879 0.003 0.010 0.987
    65  1944   587   488    45    23  0.039 0.122 0.838 0.010 0.036 0.954
    70  1753   543   441    13    21  0.042 0.139 0.819 0.003 0.008 0.989
    75  1467   467   369     5    20  0.041 0.134 0.825 0.003 0.006 0.992
    80  1194   366   304    54    20  0.046 0.147 0.807 0.017 0.080 0.903
    85  1038   292   286    17    17  0.046 0.159 0.794 0.015 0.053 0.932
    90   907   274   242     1    16  0.041 0.145 0.814 0.004 0.012 0.985
    95   664   213   161     0    14  0.042 0.165 0.793 0.001 0.002 0.997
   100   511   158   139     0    12  0.044 0.167 0.789 0.001 0.002 0.997
   105   408   128    80    28    11  0.044 0.165 0.791 0.041 0.173 0.786
   110   317   126    84     2    11  0.043 0.166 0.791 0.001 0.002 0.997
   115   291    79    91     0     8  0.038 0.151 0.811 0.001 0.002 0.997
   120   212    71    54     0     7  0.043 0.168 0.789 0.001 0.002 0.997
   125   182    61    60     0     7  0.053 0.206 0.741 0.001 0.002 0.997
   130   126    53    32     0     6  0.054 0.200 0.746 0.001 0.002 0.997
   135   101    31    23     1     6  0.053 0.208 0.739 0.001 0.002 0.997
   140    59    18    14     0     5  0.055 0.215 0.730 0.001 0.002 0.997
   145    45    11     8     0     5  0.059 0.224 0.717 0.001 0.002 0.997
   150    42    15    14     0     5  0.051 0.206 0.742 0.001 0.002 0.997
   155    47    11     7     0     5  0.048 0.170 0.782 0.001 0.002 0.997
   160    39    12    12     0     5  0.059 0.217 0.723 0.001 0.002 0.997
   165    21    10     5     0     4  0.050 0.197 0.754 0.001 0.002 0.997
   170    14     8     3     0     3  0.064 0.304 0.632 0.001 0.002 0.997
   175     9     2     1     0     2  0.077 0.345 0.579   NaN   NaN   NaN
   180    15     5     3     0     2  0.070 0.293 0.637   NaN   NaN   NaN
   185    16     4     3     0     2  0.072 0.313 0.615   NaN   NaN   NaN
   190    15     1     4     0     2  0.064 0.255 0.681   NaN   NaN   NaN
   195    11     2     4     0     2  0.062 0.234 0.705   NaN   NaN   NaN
   200    14     5    11     0     2  0.072 0.313 0.615   NaN   NaN   NaN
   205    10     3     2     0     2  0.104 0.544 0.353   NaN   NaN   NaN
   210    19     3     6     0     2  0.091 0.449 0.460   NaN   NaN   NaN
   215     9     2     1     0     2  0.103 0.537 0.360   NaN   NaN   NaN
   220     9     2     3     0     1  0.111 0.601 0.287   NaN   NaN   NaN
   225    11     0     3     0     1  0.111 0.601 0.287   NaN   NaN   NaN
   230     9     1     1     0     1  0.111 0.601 0.287   NaN   NaN   NaN
   235    10     3     4     0     1  0.111 0.601 0.287   NaN   NaN   NaN
   240     1     2     0     0     1  0.111 0.601 0.287   NaN   NaN   NaN
   245     3     2     0     0     1  0.111 0.601 0.287   NaN   NaN   NaN
   250     1     0     0     0     1  0.111 0.601 0.287   NaN   NaN   NaN
   255     0     0     0     0     0    NaN   NaN   NaN   NaN   NaN   NaN
   260     0     0     0     0     0    NaN   NaN   NaN   NaN   NaN   NaN
   265     0     0     0     0     0    NaN   NaN   NaN   NaN   NaN   NaN
   270     0     0     0     0     0    NaN   NaN   NaN   NaN   NaN   NaN
   275     0     0     0     0     0    NaN   NaN   NaN   NaN   NaN   NaN
   280     0     0     0     0     0    NaN   NaN   NaN   NaN   NaN   NaN
   285     0     0     0     0     0    NaN   NaN   NaN   NaN   NaN   NaN
   290     0     0     0     0     0    NaN   NaN   NaN   NaN   NaN   NaN
   295     0     0     0     0     0    NaN   NaN   NaN   NaN   NaN   NaN
   300     0     0     0     0     0    NaN   NaN   NaN   NaN   NaN   NaN
   305     0     0     0     0     0    NaN   NaN   NaN   NaN   NaN   NaN
   310     0     0     0     0     0    NaN   NaN   NaN   NaN   NaN   NaN
   315     0     0     0     0     0    NaN   NaN   NaN   NaN   NaN   NaN
   320     0     0     0     0     0    NaN   NaN   NaN   NaN   NaN   NaN
   325     0     0     0     0     0    NaN   NaN   NaN   NaN   NaN   NaN
   330     0     0     0     0     0    NaN   NaN   NaN   NaN   NaN   NaN
   335     0     0     0     0     0    NaN   NaN   NaN   NaN   NaN   NaN
   340     0     0     0     0     0    NaN   NaN   NaN   NaN   NaN   NaN
   345     0     0     0     0     0    NaN   NaN   NaN   NaN   NaN   NaN
   350     0     0     0     0     0    NaN   NaN   NaN   NaN   NaN   NaN
   355     0     0     0     0     0    NaN   NaN   NaN   NaN   NaN   NaN
   360     0     0     0     0     0    NaN   NaN   NaN   NaN   NaN   NaN
   365     0     0     0     0     0    NaN   NaN   NaN   NaN   NaN   NaN
   370     0     0     0     0     0    NaN   NaN   NaN   NaN   NaN   NaN
   375     0     0     0     0     0    NaN   NaN   NaN   NaN   NaN   NaN
   380     0     0     0     0     0    NaN   NaN   NaN   NaN   NaN   NaN
   385     0     0     0     0     0    NaN   NaN   NaN   NaN   NaN   NaN
   390     0     0     0     0     0    NaN   NaN   NaN   NaN   NaN   NaN
   395     0     0     0     0     0    NaN   NaN   NaN   NaN   NaN   NaN
   400     0     0     0     0     0    NaN   NaN   NaN   NaN   NaN   NaN
   405     0     0     0     0     0    NaN   NaN   NaN   NaN   NaN   NaN
   410     0     0     0     0     0    NaN   NaN   NaN   NaN   NaN   NaN
   415     0     0     0     0     0    NaN   NaN   NaN   NaN   NaN   NaN
   420     0     0     0     0     0    NaN   NaN   NaN   NaN   NaN   NaN
   425     0     0     0     0     0    NaN   NaN   NaN   NaN   NaN   NaN
   430     0     0     0     0     0    NaN   NaN   NaN   NaN   NaN   NaN
   435     0     0     0     0     0    NaN   NaN   NaN   NaN   NaN   NaN
   440     0     0     0     0     0    NaN   NaN   NaN   NaN   NaN   NaN
   445     0     0     0     0     0    NaN   NaN   NaN   NaN   NaN   NaN
   450     0     0     0     0     0    NaN   NaN   NaN   NaN   NaN   NaN
   455     0     0     0     0     0    NaN   NaN   NaN   NaN   NaN   NaN
   460     0     0     0     0     0    NaN   NaN   NaN   NaN   NaN   NaN
   465     0     0     0     0     0    NaN   NaN   NaN   NaN   NaN   NaN
   470     0     0     0     0     0    NaN   NaN   NaN   NaN   NaN   NaN
   475     0     0     0     0     0    NaN   NaN   NaN   NaN   NaN   NaN
   480     0     0     0     0     0    NaN   NaN   NaN   NaN   NaN   NaN
   485     0     0     0     0     0    NaN   NaN   NaN   NaN   NaN   NaN
   490     0     0     0     0     0    NaN   NaN   NaN   NaN   NaN   NaN
   495     0     0     0     0     0    NaN   NaN   NaN   NaN   NaN   NaN
   500     0     0     0     0     0    NaN   NaN   NaN   NaN   NaN   NaN
   505     0     0     0     0     0    NaN   NaN   NaN   NaN   NaN   NaN
   510     0     0     0     0     0    NaN   NaN   NaN   NaN   NaN   NaN
   515     0     0     0     0     0    NaN   NaN   NaN   NaN   NaN   NaN
   520     0     0     0     0     0    NaN   NaN   NaN   NaN   NaN   NaN
   525     0     0     0     0     0    NaN   NaN   NaN   NaN   NaN   NaN
   530     0     0     0     0     0    NaN   NaN   NaN   NaN   NaN   NaN
   535     0     0     0     0     0    NaN   NaN   NaN   NaN   NaN   NaN
   540     0     0     0     0     0    NaN   NaN   NaN   NaN   NaN   NaN
   545     0     0     0     0     0    NaN   NaN   NaN   NaN   NaN   NaN
   550     0     0     0     0     0    NaN   NaN   NaN   NaN   NaN   NaN
   555     0     0     0     0     0    NaN   NaN   NaN   NaN   NaN   NaN
   560     0     0     0     0     0    NaN   NaN   NaN   NaN   NaN   NaN
   565     0     0     0     0     0    NaN   NaN   NaN   NaN   NaN   NaN
   570     0     0     0     0     0    NaN   NaN   NaN   NaN   NaN   NaN
   575     0     0     0     0     0    NaN   NaN   NaN   NaN   NaN   NaN
   580     0     0     0     0     0    NaN   NaN   NaN   NaN   NaN   NaN
   585     0     0     0     0     0    NaN   NaN   NaN   NaN   NaN   NaN
   590     0     0     0     0     0    NaN   NaN   NaN   NaN   NaN   NaN
   595     0     0     0     0     0    NaN   NaN   NaN   NaN   NaN   NaN
   600     0     0     0     0     0    NaN   NaN   NaN   NaN   NaN   NaN
   605     0     0     0     0     0    NaN   NaN   NaN   NaN   NaN   NaN
   610     0     0     0     0     0    NaN   NaN   NaN   NaN   NaN   NaN
   615     0     0     0     0     0    NaN   NaN   NaN   NaN   NaN   NaN
   620     0     0     0     0     0    NaN   NaN   NaN   NaN   NaN   NaN
   625     0     0     0     0     0    NaN   NaN   NaN   NaN   NaN   NaN
   630     0     0     0     0     0    NaN   NaN   NaN   NaN   NaN   NaN
   635     0     0     0     0     0    NaN   NaN   NaN   NaN   NaN   NaN
   640     0     0     0     0     0    NaN   NaN   NaN   NaN   NaN   NaN
   645     0     0     0     0     0    NaN   NaN   NaN   NaN   NaN   NaN
   650     0     0     0     0     0    NaN   NaN   NaN   NaN   NaN   NaN
   655     0     0     0     0     0    NaN   NaN   NaN   NaN   NaN   NaN
   660     0     0     0     0     0    NaN   NaN   NaN   NaN   NaN   NaN
   665     0     0     0     0     0    NaN   NaN   NaN   NaN   NaN   NaN
   670     0     0     0     0     0    NaN   NaN   NaN   NaN   NaN   NaN
   675     0     0     0     0     0    NaN   NaN   NaN   NaN   NaN   NaN
   680     0     0     0     0     0    NaN   NaN   NaN   NaN   NaN   NaN
   685     0     0     0     0     0    NaN   NaN   NaN   NaN   NaN   NaN
   690     0     0     0     0     0    NaN   NaN   NaN   NaN   NaN   NaN
   695     0     0     0     0     0    NaN   NaN   NaN   NaN   NaN   NaN
   700     0     0     0     0     0    NaN   NaN   NaN   NaN   NaN   NaN
   705     0     0     0     0     0    NaN   NaN   NaN   NaN   NaN   NaN
   710     0     0     0     0     0    NaN   NaN   NaN   NaN   NaN   NaN
   715     0     0     0     0     0    NaN   NaN   NaN   NaN   NaN   NaN
   720     0     0     0     0     0    NaN   NaN   NaN   NaN   NaN   NaN
   725     0     0     0     0     0    NaN   NaN   NaN   NaN   NaN   NaN
   730     0     0     0     0     0    NaN   NaN   NaN   NaN   NaN   NaN
   735     0     0     0     0     0    NaN   NaN   NaN   NaN   NaN   NaN
   740     0     0     0     0     0    NaN   NaN   NaN   NaN   NaN   NaN
   745     0     0     0     0     0    NaN   NaN   NaN   NaN   NaN   NaN
   750     0     0     0     0     0    NaN   NaN   NaN   NaN   NaN   NaN
   755     0     0     0     0     0    NaN   NaN   NaN   NaN   NaN   NaN
   760     0     0     0     0     0    NaN   NaN   NaN   NaN   NaN   NaN
   765     0     0     0     0     0    NaN   NaN   NaN   NaN   NaN   NaN
   770     0     0     0     0     0    NaN   NaN   NaN   NaN   NaN   NaN
   775     0     0     0     0     0    NaN   NaN   NaN   NaN   NaN   NaN
   780     0     0     0     0     0    NaN   NaN   NaN   NaN   NaN   NaN
   785     0     0     0     0     0    NaN   NaN   NaN   NaN   NaN   NaN
   790     0     0     0     0     0    NaN   NaN   NaN   NaN   NaN   NaN
   795     0     0     0     0     0    NaN   NaN   NaN   NaN   NaN   NaN
   800     0     0     0     0     0    NaN   NaN   NaN   NaN   NaN   NaN
   805     0     0     0     0     0    NaN   NaN   NaN   NaN   NaN   NaN
   810     0     0     0     0     0    NaN   NaN   NaN   NaN   NaN   NaN
   815     0     0     0     0     0    NaN   NaN   NaN   NaN   NaN   NaN
   820     0     0     0     0     0    NaN   NaN   NaN   NaN   NaN   NaN
   825     0     0     0     0     0    NaN   NaN   NaN   NaN   NaN   NaN
   830     0     0     0     0     0    NaN   NaN   NaN   NaN   NaN   NaN
   835     0     0     0     0     0    NaN   NaN   NaN   NaN   NaN   NaN
   840     0     0     0     0     0    NaN   NaN   NaN   NaN   NaN   NaN
   845     0     0     0     0     0    NaN   NaN   NaN   NaN   NaN   NaN
   850     0     0     0     0     0    NaN   NaN   NaN   NaN   NaN   NaN
   855     0     0     0     0     0    NaN   NaN   NaN   NaN   NaN   NaN
   860     0     0     0     0     0    NaN   NaN   NaN   NaN   NaN   NaN
   865     0     0     0     0     0    NaN   NaN   NaN   NaN   NaN   NaN
   870     0     0     0     0     0    NaN   NaN   NaN   NaN   NaN   NaN
   875     0     0     0     0     0    NaN   NaN   NaN   NaN   NaN   NaN
   880     0     0     0     0     0    NaN   NaN   NaN   NaN   NaN   NaN
   885     0     0     0     0     0    NaN   NaN   NaN   NaN   NaN   NaN
   890     0     0     0     0     0    NaN   NaN   NaN   NaN   NaN   NaN
   895     0     0     0     0     0    NaN   NaN   NaN   NaN   NaN   NaN
   900     0     0     0     0     0    NaN   NaN   NaN   NaN   NaN   NaN
   905     0     0     0     0     0    NaN   NaN   NaN   NaN   NaN   NaN
   910     0     0     0     0     0    NaN   NaN   NaN   NaN   NaN   NaN
   915     0     0     0     0     0    NaN   NaN   NaN   NaN   NaN   NaN
   920     0     0     0     0     0    NaN   NaN   NaN   NaN   NaN   NaN
   925     0     0     0     0     0    NaN   NaN   NaN   NaN   NaN   NaN
   930     0     0     0     0     0    NaN   NaN   NaN   NaN   NaN   NaN
   935     0     0     0     0     0    NaN   NaN   NaN   NaN   NaN   NaN
   940     0     0     0     0     0    NaN   NaN   NaN   NaN   NaN   NaN
   945     0     0     0     0     0    NaN   NaN   NaN   NaN   NaN   NaN
   950     0     0     0     0     0    NaN   NaN   NaN   NaN   NaN   NaN
   955     0     0     0     0     0    NaN   NaN   NaN   NaN   NaN   NaN
   960     0     0     0     0     0    NaN   NaN   NaN   NaN   NaN   NaN
   965     0     0     0     0     0    NaN   NaN   NaN   NaN   NaN   NaN
   970     0     0     0     0     0    NaN   NaN   NaN   NaN   NaN   NaN
   975     0     0     0     0     0    NaN   NaN   NaN   NaN   NaN   NaN
   980     0     0     0     0     0    NaN   NaN   NaN   NaN   NaN   NaN
   985     0     0     0     0     0    NaN   NaN   NaN   NaN   NaN   NaN
   990     0     0     0     0     0    NaN   NaN   NaN   NaN   NaN   NaN
   995     0     0     0     0     0    NaN   NaN   NaN   NaN   NaN   NaN
  1000     0     0     0     0     0    NaN   NaN   NaN   NaN   NaN   NaN
  1005     0     0     0     0     0    NaN   NaN   NaN   NaN   NaN   NaN
  1010     0     0     0     0     0    NaN   NaN   NaN   NaN   NaN   NaN
  1015     0     0     0     0     0    NaN   NaN   NaN   NaN   NaN   NaN
  1020     0     0     0     0     0    NaN   NaN   NaN   NaN   NaN   NaN
  1025     0     0     0     0     0    NaN   NaN   NaN   NaN   NaN   NaN
  1030     0     0     0     0     0    NaN   NaN   NaN   NaN   NaN   NaN
  1035     0     0     0     0     0    NaN   NaN   NaN   NaN   NaN   NaN
  1040     0     0     0     0     0    NaN   NaN   NaN   NaN   NaN   NaN
  1045     0     0     0     0     0    NaN   NaN   NaN   NaN   NaN   NaN
  1050     0     0     0     0     0    NaN   NaN   NaN   NaN   NaN   NaN
  1055     0     0     0     0     0    NaN   NaN   NaN   NaN   NaN   NaN
  1060     0     0     0     0     0    NaN   NaN   NaN   NaN   NaN   NaN
  1065     0     0     0     0     0    NaN   NaN   NaN   NaN   NaN   NaN
  1070     0     0     0     0     0    NaN   NaN   NaN   NaN   NaN   NaN
  1075     0     0     0     0     0    NaN   NaN   NaN   NaN   NaN   NaN
  1080     0     0     0     0     0    NaN   NaN   NaN   NaN   NaN   NaN
  1085     0     0     0     0     0    NaN   NaN   NaN   NaN   NaN   NaN
  1090     0     0     0     0     0    NaN   NaN   NaN   NaN   NaN   NaN
  1095     0     0     0     0     0    NaN   NaN   NaN   NaN   NaN   NaN
  1100     0     0     0     0     0    NaN   NaN   NaN   NaN   NaN   NaN
  1105     0     0     0     0     0    NaN   NaN   NaN   NaN   NaN   NaN
  1110     0     0     0     0     0    NaN   NaN   NaN   NaN   NaN   NaN
  1115     0     0     0     0     0    NaN   NaN   NaN   NaN   NaN   NaN
  1120     0     0     0     0     0    NaN   NaN   NaN   NaN   NaN   NaN
  1125     0     0     0     0     0    NaN   NaN   NaN   NaN   NaN   NaN
  1130     0     0     0     0     0    NaN   NaN   NaN   NaN   NaN   NaN
  1135     0     0     0     0     0    NaN   NaN   NaN   NaN   NaN   NaN
  1140     0     0     0     0     0    NaN   NaN   NaN   NaN   NaN   NaN
  1145     0     0     0     0     0    NaN   NaN   NaN   NaN   NaN   NaN
  1150     0     0     0     0     0    NaN   NaN   NaN   NaN   NaN   NaN
  1155     0     0     0     0     0    NaN   NaN   NaN   NaN   NaN   NaN
  1160     0     0     0     0     0    NaN   NaN   NaN   NaN   NaN   NaN
  1165     0     0     0     0     0    NaN   NaN   NaN   NaN   NaN   NaN
  1170     0     0     0     0     0    NaN   NaN   NaN   NaN   NaN   NaN
  1175     0     0     0     0     0    NaN   NaN   NaN   NaN   NaN   NaN
  1180     0     0     0     0     0    NaN   NaN   NaN   NaN   NaN   NaN
  1185     0     0     0     0     0    NaN   NaN   NaN   NaN   NaN   NaN
  1190     0     0     0     0     0    NaN   NaN   NaN   NaN   NaN   NaN
  1195     0     0     0     0     0    NaN   NaN   NaN   NaN   NaN   NaN
  1200     0     0     0     0     0    NaN   NaN   NaN   NaN   NaN   NaN
  1205     0     0     0     0     0    NaN   NaN   NaN   NaN   NaN   NaN
  1210     0     0     0     0     0    NaN   NaN   NaN   NaN   NaN   NaN
  1215     0     0     0     0     0    NaN   NaN   NaN   NaN   NaN   NaN
  1220     0     0     0     0     0    NaN   NaN   NaN   NaN   NaN   NaN
  1225     0     0     0     0     0    NaN   NaN   NaN   NaN   NaN   NaN
  1230     0     0     0     0     0    NaN   NaN   NaN   NaN   NaN   NaN
  1235     0     0     0     0     0    NaN   NaN   NaN   NaN   NaN   NaN
  1240     0     0     0     0     0    NaN   NaN   NaN   NaN   NaN   NaN
  1245     0     0     0     0     0    NaN   NaN   NaN   NaN   NaN   NaN
  1250     0     0     0     0     0    NaN   NaN   NaN   NaN   NaN   NaN
  1255     0     0     0     0     0    NaN   NaN   NaN   NaN   NaN   NaN
  1260     0     0     0     0     0    NaN   NaN   NaN   NaN   NaN   NaN
  1265     0     0     0     0     0    NaN   NaN   NaN   NaN   NaN   NaN
  1270     0     0     0     0     0    NaN   NaN   NaN   NaN   NaN   NaN
  1275     0     0     0     0     0    NaN   NaN   NaN   NaN   NaN   NaN
  1280     0     0     0     0     0    NaN   NaN   NaN   NaN   NaN   NaN
  1285     0     0     0     0     0    NaN   NaN   NaN   NaN   NaN   NaN
  1290     0     0     0     0     0    NaN   NaN   NaN   NaN   NaN   NaN
  1295     0     0     0     0     0    NaN   NaN   NaN   NaN   NaN   NaN
  1300     0     0     0     0     0    NaN   NaN   NaN   NaN   NaN   NaN
  1305     0     0     0     0     0    NaN   NaN   NaN   NaN   NaN   NaN
  1310     0     0     0     0     0    NaN   NaN   NaN   NaN   NaN   NaN
  1315     0     0     0     0     0    NaN   NaN   NaN   NaN   NaN   NaN
